# time_ns amplitude
-14.187500 0.000008
-14.156250 0.000016
-14.125000 0.000025
-14.093750 0.000034
-14.062500 0.000043
-14.031250 0.000052
-14.000000 0.000062
-13.968750 0.000072
-13.937500 0.000082
-13.906250 0.000092
-13.875000 0.000102
-13.843750 0.000113
-13.812500 0.000124
-13.781250 0.000135
-13.750000 0.000146
-13.718750 0.000158
-13.687500 0.000170
-13.656250 0.000183
-13.625000 0.000197
-13.593750 0.000211
-13.562500 0.000225
-13.531250 0.000240
-13.500000 0.000256
-13.468750 0.000272
-13.437500 0.000289
-13.406250 0.000306
-13.375000 0.000324
-13.343750 0.000343
-13.312500 0.000362
-13.281250 0.000382
-13.250000 0.000403
-13.218750 0.000424
-13.187500 0.000445
-13.156250 0.000468
-13.125000 0.000491
-13.093750 0.000514
-13.062500 0.000539
-13.031250 0.000564
-13.000000 0.000589
-12.968750 0.000616
-12.937500 0.000643
-12.906250 0.000671
-12.875000 0.000699
-12.843750 0.000728
-12.812500 0.000758
-12.781250 0.000789
-12.750000 0.000820
-12.718750 0.000852
-12.687500 0.000885
-12.656250 0.000919
-12.625000 0.000953
-12.593750 0.000988
-12.562500 0.001024
-12.531250 0.001061
-12.500000 0.001098
-12.468750 0.001136
-12.437500 0.001175
-12.406250 0.001215
-12.375000 0.001256
-12.343750 0.001297
-12.312500 0.001339
-12.281250 0.001382
-12.250000 0.001426
-12.218750 0.001471
-12.187500 0.001517
-12.156250 0.001563
-12.125000 0.001610
-12.093750 0.001659
-12.062500 0.001708
-12.031250 0.001758
-12.000000 0.001808
-11.968750 0.001860
-11.937500 0.001913
-11.906250 0.001966
-11.875000 0.002021
-11.843750 0.002076
-11.812500 0.002132
-11.781250 0.002190
-11.750000 0.002248
-11.718750 0.002307
-11.687500 0.002367
-11.656250 0.002428
-11.625000 0.002490
-11.593750 0.002553
-11.562500 0.002617
-11.531250 0.002682
-11.500000 0.002748
-11.468750 0.002815
-11.437500 0.002883
-11.406250 0.002952
-11.375000 0.003022
-11.343750 0.003093
-11.312500 0.003165
-11.281250 0.003238
-11.250000 0.003312
-11.218750 0.003387
-11.187500 0.003463
-11.156250 0.003540
-11.125000 0.003619
-11.093750 0.003698
-11.062500 0.003779
-11.031250 0.003860
-11.000000 0.003943
-10.968750 0.004027
-10.937500 0.004112
-10.906250 0.004198
-10.875000 0.004285
-10.843750 0.004373
-10.812500 0.004463
-10.781250 0.004554
-10.750000 0.004645
-10.718750 0.004738
-10.687500 0.004832
-10.656250 0.004928
-10.625000 0.005024
-10.593750 0.005122
-10.562500 0.005220
-10.531250 0.005320
-10.500000 0.005422
-10.468750 0.005524
-10.437500 0.005628
-10.406250 0.005732
-10.375000 0.005839
-10.343750 0.005946
-10.312500 0.006054
-10.281250 0.006164
-10.250000 0.006275
-10.218750 0.006388
-10.187500 0.006501
-10.156250 0.006616
-10.125000 0.006732
-10.093750 0.006850
-10.062500 0.006969
-10.031250 0.007089
-10.000000 0.007210
-9.968750 0.007333
-9.937500 0.007457
-9.906250 0.007582
-9.875000 0.007709
-9.843750 0.007837
-9.812500 0.007966
-9.781250 0.008097
-9.750000 0.008229
-9.718750 0.008363
-9.687500 0.008497
-9.656250 0.008634
-9.625000 0.008771
-9.593750 0.008910
-9.562500 0.009051
-9.531250 0.009192
-9.500000 0.009339
-9.468750 0.009506
-9.437500 0.009696
-9.406250 0.009909
-9.375000 0.010147
-9.343750 0.010410
-9.312500 0.010698
-9.281250 0.011010
-9.250000 0.011349
-9.218750 0.011714
-9.187500 0.012105
-9.156250 0.012523
-9.125000 0.012968
-9.093750 0.013441
-9.062500 0.013942
-9.031250 0.014471
-9.000000 0.015029
-8.968750 0.015616
-8.937500 0.016232
-8.906250 0.016879
-8.875000 0.017555
-8.843750 0.018262
-8.812500 0.019000
-8.781250 0.019769
-8.750000 0.020570
-8.718750 0.021403
-8.687500 0.022268
-8.656250 0.023167
-8.625000 0.024098
-8.593750 0.025063
-8.562500 0.026062
-8.531250 0.027095
-8.500000 0.028163
-8.468750 0.029266
-8.437500 0.030404
-8.406250 0.031578
-8.375000 0.032788
-8.343750 0.034035
-8.312500 0.035318
-8.281250 0.036639
-8.250000 0.037998
-8.218750 0.039394
-8.187500 0.040829
-8.156250 0.042303
-8.125000 0.043816
-8.093750 0.045368
-8.062500 0.046961
-8.031250 0.048593
-8.000000 0.050266
-7.968750 0.051980
-7.937500 0.053736
-7.906250 0.055533
-7.875000 0.057373
-7.843750 0.059255
-7.812500 0.061179
-7.781250 0.063147
-7.750000 0.065159
-7.718750 0.067215
-7.687500 0.069314
-7.656250 0.071459
-7.625000 0.073649
-7.593750 0.075884
-7.562500 0.078165
-7.531250 0.080493
-7.500000 0.082866
-7.468750 0.085287
-7.437500 0.087756
-7.406250 0.090271
-7.375000 0.092835
-7.343750 0.095448
-7.312500 0.098109
-7.281250 0.100820
-7.250000 0.103580
-7.218750 0.106390
-7.187500 0.109250
-7.156250 0.112161
-7.125000 0.115123
-7.093750 0.118137
-7.062500 0.121202
-7.031250 0.124320
-7.000000 0.127490
-6.968750 0.130713
-6.937500 0.133989
-6.906250 0.137319
-6.875000 0.140703
-6.843750 0.144141
-6.812500 0.147634
-6.781250 0.151183
-6.750000 0.154787
-6.718750 0.158447
-6.687500 0.162163
-6.656250 0.165935
-6.625000 0.169765
-6.593750 0.173652
-6.562500 0.177597
-6.531250 0.181600
-6.500000 0.185662
-6.468750 0.189782
-6.437500 0.193962
-6.406250 0.198202
-6.375000 0.202501
-6.343750 0.206861
-6.312500 0.211281
-6.281250 0.215763
-6.250000 0.220306
-6.218750 0.224911
-6.187500 0.229578
-6.156250 0.234308
-6.125000 0.239101
-6.093750 0.243957
-6.062500 0.248877
-6.031250 0.253861
-6.000000 0.258910
-5.968750 0.264023
-5.937500 0.269202
-5.906250 0.274446
-5.875000 0.279757
-5.843750 0.285133
-5.812500 0.290576
-5.781250 0.296087
-5.750000 0.301664
-5.718750 0.307310
-5.687500 0.313024
-5.656250 0.318806
-5.625000 0.324658
-5.593750 0.330578
-5.562500 0.336569
-5.531250 0.342629
-5.500000 0.348760
-5.468750 0.354962
-5.437500 0.361235
-5.406250 0.367579
-5.375000 0.373996
-5.343750 0.380484
-5.312500 0.387046
-5.281250 0.393680
-5.250000 0.400377
-5.218750 0.407093
-5.187500 0.413817
-5.156250 0.420548
-5.125000 0.427285
-5.093750 0.434028
-5.062500 0.440775
-5.031250 0.447527
-5.000000 0.454282
-4.968750 0.461040
-4.937500 0.467799
-4.906250 0.474560
-4.875000 0.481321
-4.843750 0.488082
-4.812500 0.494841
-4.781250 0.501599
-4.750000 0.508355
-4.718750 0.515107
-4.687500 0.521856
-4.656250 0.528599
-4.625000 0.535338
-4.593750 0.542070
-4.562500 0.548795
-4.531250 0.555513
-4.500000 0.562223
-4.468750 0.568923
-4.437500 0.575613
-4.406250 0.582294
-4.375000 0.588962
-4.343750 0.595619
-4.312500 0.602263
-4.281250 0.608894
-4.250000 0.615511
-4.218750 0.622113
-4.187500 0.628699
-4.156250 0.635268
-4.125000 0.641821
-4.093750 0.648356
-4.062500 0.654872
-4.031250 0.661369
-4.000000 0.667846
-3.968750 0.674303
-3.937500 0.680738
-3.906250 0.687150
-3.875000 0.693540
-3.843750 0.699906
-3.812500 0.706248
-3.781250 0.712565
-3.750000 0.718855
-3.718750 0.725120
-3.687500 0.731357
-3.656250 0.737566
-3.625000 0.743746
-3.593750 0.749896
-3.562500 0.756017
-3.531250 0.762106
-3.500000 0.768164
-3.468750 0.774190
-3.437500 0.780182
-3.406250 0.786141
-3.375000 0.792065
-3.343750 0.797953
-3.312500 0.803806
-3.281250 0.809621
-3.250000 0.815400
-3.218750 0.821140
-3.187500 0.826841
-3.156250 0.832502
-3.125000 0.838123
-3.093750 0.843702
-3.062500 0.849240
-3.031250 0.854735
-3.000000 0.860181
-2.968750 0.865551
-2.937500 0.870837
-2.906250 0.876038
-2.875000 0.881153
-2.843750 0.886180
-2.812500 0.891118
-2.781250 0.895966
-2.750000 0.900722
-2.718750 0.905385
-2.687500 0.909953
-2.656250 0.914426
-2.625000 0.918801
-2.593750 0.923078
-2.562500 0.927254
-2.531250 0.931329
-2.500000 0.935302
-2.468750 0.939170
-2.437500 0.942933
-2.406250 0.946589
-2.375000 0.950137
-2.343750 0.953575
-2.312500 0.956903
-2.281250 0.960117
-2.250000 0.963219
-2.218750 0.966205
-2.187500 0.969074
-2.156250 0.971826
-2.125000 0.974458
-2.093750 0.976970
-2.062500 0.979360
-2.031250 0.981627
-2.000000 0.983769
-1.968750 0.985785
-1.937500 0.987673
-1.906250 0.989433
-1.875000 0.991062
-1.843750 0.992560
-1.812500 0.993925
-1.781250 0.995155
-1.750000 0.996250
-1.718750 0.997208
-1.687500 0.998027
-1.656250 0.998707
-1.625000 0.999245
-1.593750 0.999641
-1.562500 0.999893
-1.531250 1.000000
-1.500000 0.999960
-1.468750 0.999772
-1.437500 0.999435
-1.406250 0.998946
-1.375000 0.998306
-1.343750 0.997512
-1.312500 0.996563
-1.281250 0.995458
-1.250000 0.994196
-1.218750 0.992774
-1.187500 0.991192
-1.156250 0.989448
-1.125000 0.987541
-1.093750 0.985470
-1.062500 0.983232
-1.031250 0.980828
-1.000000 0.978273
-0.968750 0.975642
-0.937500 0.972953
-0.906250 0.970206
-0.875000 0.967403
-0.843750 0.964544
-0.812500 0.961629
-0.781250 0.958659
-0.750000 0.955634
-0.718750 0.952555
-0.687500 0.949422
-0.656250 0.946236
-0.625000 0.942998
-0.593750 0.939707
-0.562500 0.936364
-0.531250 0.932971
-0.500000 0.929527
-0.468750 0.926033
-0.437500 0.922489
-0.406250 0.918896
-0.375000 0.915254
-0.343750 0.911565
-0.312500 0.907828
-0.281250 0.904044
-0.250000 0.900213
-0.218750 0.896337
-0.187500 0.892415
-0.156250 0.888448
-0.125000 0.884436
-0.093750 0.880381
-0.062500 0.876282
-0.031250 0.872140
0.000000 0.867956
0.031250 0.863730
0.062500 0.859463
0.093750 0.855155
0.125000 0.850806
0.156250 0.846417
0.187500 0.841990
0.218750 0.837523
0.250000 0.833018
0.281250 0.828475
0.312500 0.823895
0.343750 0.819278
0.375000 0.814625
0.406250 0.809937
0.437500 0.805213
0.468750 0.800454
0.500000 0.795661
0.531250 0.790834
0.562500 0.785974
0.593750 0.781082
0.625000 0.776157
0.656250 0.771201
0.687500 0.766214
0.718750 0.761195
0.750000 0.756147
0.781250 0.751070
0.812500 0.745963
0.843750 0.740827
0.875000 0.735664
0.906250 0.730473
0.937500 0.725255
0.968750 0.720010
1.000000 0.714745
1.031250 0.709478
1.062500 0.704217
1.093750 0.698962
1.125000 0.693714
1.156250 0.688474
1.187500 0.683243
1.218750 0.678023
1.250000 0.672813
1.281250 0.667616
1.312500 0.662432
1.343750 0.657262
1.375000 0.652107
1.406250 0.646969
1.437500 0.641848
1.468750 0.636745
1.500000 0.631661
1.531250 0.626598
1.562500 0.621556
1.593750 0.616536
1.625000 0.611539
1.656250 0.606567
1.687500 0.601621
1.718750 0.596700
1.750000 0.591807
1.781250 0.586942
1.812500 0.582107
1.843750 0.577302
1.875000 0.572528
1.906250 0.567787
1.937500 0.563079
1.968750 0.558406
2.000000 0.553768
2.031250 0.549167
2.062500 0.544603
2.093750 0.540078
2.125000 0.535592
2.156250 0.531146
2.187500 0.526743
2.218750 0.522381
2.250000 0.518064
2.281250 0.513790
2.312500 0.509563
2.343750 0.505382
2.375000 0.501248
2.406250 0.497163
2.437500 0.493128
2.468750 0.489143
2.500000 0.485210
2.531250 0.481330
2.562500 0.477503
2.593750 0.473731
2.625000 0.470015
2.656250 0.466355
2.687500 0.462754
2.718750 0.459210
2.750000 0.455727
2.781250 0.452304
2.812500 0.448943
2.843750 0.445645
2.875000 0.442411
2.906250 0.439241
2.937500 0.436137
2.968750 0.433100
3.000000 0.430121
3.031250 0.427162
3.062500 0.424214
3.093750 0.421275
3.125000 0.418348
3.156250 0.415430
3.187500 0.412523
3.218750 0.409626
3.250000 0.406740
3.281250 0.403865
3.312500 0.400999
3.343750 0.398145
3.375000 0.395301
3.406250 0.392468
3.437500 0.389645
3.468750 0.386833
3.500000 0.384031
3.531250 0.381241
3.562500 0.378461
3.593750 0.375692
3.625000 0.372933
3.656250 0.370185
3.687500 0.367449
3.718750 0.364723
3.750000 0.362008
3.781250 0.359303
3.812500 0.356610
3.843750 0.353928
3.875000 0.351256
3.906250 0.348596
3.937500 0.345946
3.968750 0.343308
4.000000 0.340681
4.031250 0.338065
4.062500 0.335459
4.093750 0.332865
4.125000 0.330283
4.156250 0.327711
4.187500 0.325151
4.218750 0.322601
4.250000 0.320063
4.281250 0.317537
4.312500 0.315021
4.343750 0.312517
4.375000 0.310025
4.406250 0.307543
4.437500 0.305074
4.468750 0.302615
4.500000 0.300168
4.531250 0.297733
4.562500 0.295308
4.593750 0.292896
4.625000 0.290495
4.656250 0.288105
4.687500 0.285728
4.718750 0.283361
4.750000 0.281007
4.781250 0.278664
4.812500 0.276333
4.843750 0.274013
4.875000 0.271705
4.906250 0.269409
4.937500 0.267125
4.968750 0.264853
5.000000 0.262592
5.031250 0.260343
5.062500 0.258107
5.093750 0.255882
5.125000 0.253669
5.156250 0.251468
5.187500 0.249279
5.218750 0.247101
5.250000 0.244936
5.281250 0.242783
5.312500 0.240643
5.343750 0.238514
5.375000 0.236397
5.406250 0.234292
5.437500 0.232200
5.468750 0.230120
5.500000 0.228052
5.531250 0.225996
5.562500 0.223953
5.593750 0.221922
5.625000 0.219903
5.656250 0.217896
5.687500 0.215902
5.718750 0.213920
5.750000 0.211951
5.781250 0.209994
5.812500 0.208050
5.843750 0.206118
5.875000 0.204198
5.906250 0.202291
5.937500 0.200397
5.968750 0.198515
6.000000 0.196646
6.031250 0.194790
6.062500 0.192946
6.093750 0.191114
6.125000 0.189296
6.156250 0.187490
6.187500 0.185697
6.218750 0.183917
6.250000 0.182149
6.281250 0.180395
6.312500 0.178653
6.343750 0.176924
6.375000 0.175208
6.406250 0.173505
6.437500 0.171815
6.468750 0.170138
6.500000 0.168473
6.531250 0.166822
6.562500 0.165184
6.593750 0.163559
6.625000 0.161947
6.656250 0.160348
6.687500 0.158762
6.718750 0.157190
6.750000 0.155630
6.781250 0.154084
6.812500 0.152551
6.843750 0.151032
6.875000 0.149525
6.906250 0.148032
6.937500 0.146552
6.968750 0.145086
7.000000 0.143633
7.031250 0.142193
7.062500 0.140767
7.093750 0.139354
7.125000 0.137955
7.156250 0.136569
7.187500 0.135197
7.218750 0.133838
7.250000 0.132492
7.281250 0.131158
7.312500 0.129835
7.343750 0.128522
7.375000 0.127220
7.406250 0.125929
7.437500 0.124649
7.468750 0.123379
7.500000 0.122121
7.531250 0.120873
7.562500 0.119635
7.593750 0.118409
7.625000 0.117193
7.656250 0.115987
7.687500 0.114792
7.718750 0.113608
7.750000 0.112434
7.781250 0.111271
7.812500 0.110119
7.843750 0.108976
7.875000 0.107845
7.906250 0.106723
7.937500 0.105613
7.968750 0.104512
8.000000 0.103422
8.031250 0.102342
8.062500 0.101273
8.093750 0.100214
8.125000 0.099165
8.156250 0.098127
8.187500 0.097099
8.218750 0.096081
8.250000 0.095073
8.281250 0.094075
8.312500 0.093088
8.343750 0.092111
8.375000 0.091143
8.406250 0.090186
8.437500 0.089239
8.468750 0.088303
8.500000 0.087376
8.531250 0.086459
8.562500 0.085552
8.593750 0.084655
8.625000 0.083768
8.656250 0.082891
8.687500 0.082024
8.718750 0.081167
8.750000 0.080319
8.781250 0.079482
8.812500 0.078654
8.843750 0.077836
8.875000 0.077028
8.906250 0.076229
8.937500 0.075441
8.968750 0.074662
9.000000 0.073892
9.031250 0.073133
9.062500 0.072383
9.093750 0.071642
9.125000 0.070912
9.156250 0.070191
9.187500 0.069479
9.218750 0.068777
9.250000 0.068084
9.281250 0.067401
9.312500 0.066728
9.343750 0.066063
9.375000 0.065409
9.406250 0.064763
9.437500 0.064127
9.468750 0.063501
9.500000 0.062884
9.531250 0.062276
9.562500 0.061677
9.593750 0.061087
9.625000 0.060507
9.656250 0.059935
9.687500 0.059373
9.718750 0.058820
9.750000 0.058276
9.781250 0.057741
9.812500 0.057215
9.843750 0.056698
9.875000 0.056190
9.906250 0.055690
9.937500 0.055200
9.968750 0.054719
10.000000 0.054246
10.031250 0.053783
10.062500 0.053328
10.093750 0.052882
10.125000 0.052445
10.156250 0.052016
10.187500 0.051597
10.218750 0.051186
10.250000 0.050783
10.281250 0.050390
10.312500 0.050005
10.343750 0.049628
10.375000 0.049260
10.406250 0.048901
10.437500 0.048551
10.468750 0.048208
10.500000 0.047875
10.531250 0.047550
10.562500 0.047233
10.593750 0.046925
10.625000 0.046625
10.656250 0.046333
10.687500 0.046050
10.718750 0.045775
10.750000 0.045509
10.781250 0.045251
10.812500 0.045001
10.843750 0.044759
10.875000 0.044525
10.906250 0.044300
10.937500 0.044083
10.968750 0.043874
11.000000 0.043673
11.031250 0.043481
11.062500 0.043296
11.093750 0.043119
11.125000 0.042951
11.156250 0.042790
11.187500 0.042638
11.218750 0.042493
11.250000 0.042357
11.281250 0.042228
11.312500 0.042107
11.343750 0.041994
11.375000 0.041889
11.406250 0.041792
11.437500 0.041702
11.468750 0.041620
11.500000 0.041546
11.531250 0.041475
11.562500 0.041407
11.593750 0.041343
11.625000 0.041281
11.656250 0.041222
11.687500 0.041166
11.718750 0.041112
11.750000 0.041061
11.781250 0.041012
11.812500 0.040965
11.843750 0.040921
11.875000 0.040879
11.906250 0.040839
11.937500 0.040800
11.968750 0.040764
12.000000 0.040729
12.031250 0.040696
12.062500 0.040664
12.093750 0.040633
12.125000 0.040604
12.156250 0.040577
12.187500 0.040550
12.218750 0.040524
12.250000 0.040499
12.281250 0.040475
12.312500 0.040452
12.343750 0.040429
12.375000 0.040407
12.406250 0.040385
12.437500 0.040363
12.468750 0.040342
12.500000 0.040320
12.531250 0.040299
12.562500 0.040278
12.593750 0.040256
12.625000 0.040234
12.656250 0.040212
12.687500 0.040189
12.718750 0.040165
12.750000 0.040141
12.781250 0.040116
12.812500 0.040091
12.843750 0.040064
12.875000 0.040036
12.906250 0.040007
12.937500 0.039976
12.968750 0.039944
13.000000 0.039911
13.031250 0.039876
13.062500 0.039840
13.093750 0.039801
13.125000 0.039761
13.156250 0.039718
13.187500 0.039674
13.218750 0.039627
13.250000 0.039578
13.281250 0.039527
13.312500 0.039473
13.343750 0.039417
13.375000 0.039358
13.406250 0.039296
13.437500 0.039231
13.468750 0.039163
13.500000 0.039092
13.531250 0.039018
13.562500 0.038941
13.593750 0.038860
13.625000 0.038775
13.656250 0.038687
13.687500 0.038596
13.718750 0.038500
13.750000 0.038402
13.781250 0.038301
13.812500 0.038199
13.843750 0.038095
13.875000 0.037989
13.906250 0.037882
13.937500 0.037773
13.968750 0.037663
14.000000 0.037550
14.031250 0.037436
14.062500 0.037320
14.093750 0.037201
14.125000 0.037081
14.156250 0.036959
14.187500 0.036834
14.218750 0.036707
14.250000 0.036578
14.281250 0.036446
14.312500 0.036312
14.343750 0.036176
14.375000 0.036037
14.406250 0.035895
14.437500 0.035751
14.468750 0.035604
14.500000 0.035455
14.531250 0.035302
14.562500 0.035147
14.593750 0.034989
14.625000 0.034828
14.656250 0.034664
14.687500 0.034496
14.718750 0.034326
14.750000 0.034152
14.781250 0.033976
14.812500 0.033795
14.843750 0.033612
14.875000 0.033425
14.906250 0.033234
14.937500 0.033040
14.968750 0.032843
15.000000 0.032641
15.031250 0.032437
15.062500 0.032228
15.093750 0.032015
15.125000 0.031799
15.156250 0.031578
15.187500 0.031354
15.218750 0.031126
15.250000 0.030893
15.281250 0.030656
15.312500 0.030415
15.343750 0.030170
15.375000 0.029921
15.406250 0.029667
15.437500 0.029408
15.468750 0.029145
15.500000 0.028878
15.531250 0.028606
15.562500 0.028329
15.593750 0.028047
15.625000 0.027761
15.656250 0.027470
15.687500 0.027174
15.718750 0.026873
15.750000 0.026568
15.781250 0.026264
15.812500 0.025963
15.843750 0.025663
15.875000 0.025366
15.906250 0.025071
15.937500 0.024779
15.968750 0.024489
16.000000 0.024202
16.031250 0.023917
16.062500 0.023635
16.093750 0.023356
16.125000 0.023079
16.156250 0.022806
16.187500 0.022535
16.218750 0.022267
16.250000 0.022003
16.281250 0.021742
16.312500 0.021483
16.343750 0.021228
16.375000 0.020977
16.406250 0.020729
16.437500 0.020484
16.468750 0.020243
16.500000 0.020005
16.531250 0.019771
16.562500 0.019541
16.593750 0.019315
16.625000 0.019092
16.656250 0.018874
16.687500 0.018659
16.718750 0.018448
16.750000 0.018242
16.781250 0.018039
16.812500 0.017841
16.843750 0.017647
16.875000 0.017458
16.906250 0.017273
16.937500 0.017092
16.968750 0.016916
17.000000 0.016745
17.031250 0.016578
17.062500 0.016417
17.093750 0.016259
17.125000 0.016107
17.156250 0.015960
17.187500 0.015818
17.218750 0.015681
17.250000 0.015549
17.281250 0.015422
17.312500 0.015300
17.343750 0.015184
17.375000 0.015073
17.406250 0.014968
17.437500 0.014868
17.468750 0.014774
17.500000 0.014685
17.531250 0.014602
17.562500 0.014525
17.593750 0.014454
17.625000 0.014389
17.656250 0.014329
17.687500 0.014276
17.718750 0.014229
17.750000 0.014188
17.781250 0.014153
17.812500 0.014124
17.843750 0.014102
17.875000 0.014086
17.906250 0.014077
17.937500 0.014075
17.968750 0.014079
18.000000 0.014088
18.031250 0.014099
18.062500 0.014110
18.093750 0.014122
18.125000 0.014133
18.156250 0.014145
18.187500 0.014156
18.218750 0.014168
18.250000 0.014180
18.281250 0.014191
18.312500 0.014203
18.343750 0.014214
18.375000 0.014225
18.406250 0.014236
18.437500 0.014247
18.468750 0.014257
18.500000 0.014267
18.531250 0.014276
18.562500 0.014285
18.593750 0.014293
18.625000 0.014301
18.656250 0.014309
18.687500 0.014315
18.718750 0.014321
18.750000 0.014326
18.781250 0.014331
18.812500 0.014334
18.843750 0.014337
18.875000 0.014339
18.906250 0.014339
18.937500 0.014339
